  Depth(m)  Tension(lbF) Speed(m/min) CCL()      GR()      Temp(C) Press(psi)  FlowUp(RPS) FlowDn(RPS) DiffPress(kPa/m) Spinner(RPS)
  3130.8100   373.6032     9.9836    85.0000    64.6923    87.2466  2167.3920    13.9422     0.0000     6.2145    13.9382
  3130.8405   373.5996    10.0250    85.0000    65.2848    87.2467  2167.4208    13.9401     0.0000     6.1798    13.9392
  3130.8710   373.5903    10.0584    85.0000    65.8840    87.2469  2167.4499    13.9390     0.0000     6.1335    13.9391
  3130.9015   373.5774    10.0930    85.0000    66.5001    87.2471  2167.4792    13.9387     0.0000     6.0827    13.9376
  3130.9320   373.5624    10.1345    85.0000    67.0960    87.2474  2167.5090    13.9378     0.0000     6.0306    13.9359
  3130.9625   373.5464    10.1790    85.0000    67.5685    87.2476  2167.5398    13.9352     0.0000     5.9757    13.9353
  3130.9930   373.5306    10.2241    85.0000    67.8536    87.2479  2167.5715    13.9303     0.0000     5.9159    13.9361
  3131.0235   373.5155    10.2752    85.0000    67.9298    87.2482  2167.6042    13.9232     0.0000     5.8505    13.9373
  3131.0540   373.5015    10.3430    85.0000    67.7628    87.2485  2167.6377    13.9150     0.0000     5.7783    13.9375
  3131.0845   373.4891    10.4222    85.0000    67.3386    87.2488  2167.6713    13.9069     0.0000     5.6982    13.9364
  3131.1150   373.4783    10.5014    85.0000    66.6639    87.2491  2167.7040    13.9004     0.0000     5.6094    13.9343
  3131.1455   373.4692    10.5781    82.5000    65.7765    87.2494  2167.7351    13.8967     0.0000     5.5096    13.9311
  3131.1760   373.4616    10.6504    87.3000    64.7240    87.2497  2167.7639    13.8969     0.0000     5.3970    13.9258
  3131.2065   373.4556    10.7131    85.0000    63.5376    87.2500  2167.7903    13.9019     0.0000     5.2765    13.9194
  3131.2370   373.4509    10.7554    82.3000    62.2840    87.2502  2167.8145    13.9114     0.0000     5.1573    13.9142
  3131.2675   373.4474    10.7736    87.6000    61.0534    87.2505  2167.8368    13.9255     0.0000     5.0475    13.9120
  3131.2980   373.4449    10.7658    85.0000    59.9154    87.2506  2167.8577    13.9442     0.0000     4.9544    13.9134
  3131.3285   373.4433    10.7239    85.0000    58.9113    87.2507  2167.8773    13.9661     0.0000     4.8851    13.9184
  3131.3590   373.4423    10.6587    85.0000    58.0870    87.2507  2167.8954    13.9887     0.0000     4.8402    13.9278
  3131.3895   373.4419    10.5872    85.0000    57.5065    87.2508  2167.9117    14.0096     0.0000     4.8156    13.9430
  3131.4200   373.4419    10.5062    85.0000    57.2056    87.2509  2167.9258    14.0270     0.0000     4.8068    13.9642
  3131.4505   373.4423    10.4087    85.0000    57.1429    87.2510  2167.9375    14.0394     0.0000     4.8047    13.9883
  3131.4810   373.4428    10.2912    85.0000    57.2230    87.2512  2167.9470    14.0458     0.0000     4.7987    14.0114
  3131.5115   373.4434    10.1627    85.0000    57.4033    87.2514  2167.9549    14.0461     0.0000     4.7809    14.0324
  3131.5420   373.4441    10.0443    85.0000    57.6429    87.2516  2167.9615    14.0403     0.0000     4.7435    14.0495
  3131.5725   373.4448     9.9462    85.0000    57.8382    87.2518  2167.9676    14.0285     0.0000     4.6778    14.0606
  3131.6030   373.4455     9.8670    85.0000    57.9211    87.2519  2167.9739    14.0127     0.0000     4.5779    14.0651
  3131.6335   373.4461     9.8070    85.0000    57.8969    87.2521  2167.9809    13.9960     0.0000     4.4437    14.0627
  3131.6640   373.4467     9.7683    85.0000    57.8563    87.2522  2167.9897    13.9801     0.0000     4.2800    14.0535
  3131.6945   373.4472     9.7490    85.0000    57.9211    87.2525  2168.0017    13.9665     0.0000     4.0906    14.0392
  3131.7250   373.4477     9.7418    85.0000    58.1475    87.2527  2168.0183    13.9585     0.0000     3.8771    14.0212
  3131.7555   373.4480     9.7396    85.0000    58.5693    87.2529  2168.0395    13.9584     0.0000     3.6461    14.0014
  3131.7860   373.4483     9.7385    85.0000    59.2409    87.2531  2168.0641    13.9685     0.0000     3.4059    13.9822
  3131.8165   373.4486     9.7460    85.0000    60.1962    87.2533  2168.0912    13.9898     0.0000     3.1592    13.9662
  3131.8470   373.4487     9.7676    85.0000    61.3761    87.2535  2168.1197    14.0208     0.0000     2.9073    13.9564
  3131.8775   373.4489     9.7903    85.0000    62.7111    87.2536  2168.1484    14.0580     0.0000     2.6547    13.9558
  3131.9080   373.4490     9.8040    85.0000    64.2485    87.2538  2168.1760    14.0976     0.0000     2.4088    13.9668
  3131.9385   373.4490     9.8119    85.0000    66.0247    87.2540  2168.2017    14.1347     0.0000     2.1782    13.9889
  3131.9690   373.4491     9.8262    85.0000    67.9952    87.2542  2168.2250    14.1658     0.0000     1.9732    14.0192
  3131.9995   373.4491     9.8588    85.0000    70.0640    87.2543  2168.2452    14.1907     0.0000     1.8025    14.0561
  3132.0300   373.4491     9.9029    85.0000    72.0639    87.2544  2168.2615    14.2080     0.0000     1.6691    14.0967
  3132.0605   373.4490     9.9476    85.0000    73.7938    87.2545  2168.2734    14.2160     0.0000     1.5725    14.1358
  3132.0910   373.4490     9.9962    85.0000    75.0977    87.2545  2168.2806    14.2151     0.0000     1.5113    14.1696
  3132.1215   373.4490    10.0461    85.0000    75.9744    87.2544  2168.2830    14.2053     0.0000     1.4844    14.1968
  3132.1520   373.4489    10.0895    85.0000    76.5188    87.2544  2168.2809    14.1863     0.0000     1.4901    14.2156
  3132.1825   373.4489    10.1315    85.0000    76.8034    87.2544  2168.2749    14.1602     0.0000     1.5287    14.2244
  3132.2130   373.4489    10.1756    85.0000    76.8813    87.2545  2168.2649    14.1303     0.0000     1.5987    14.2236
  3132.2435   373.4489    10.2269    85.0000    76.7782    87.2547  2168.2517    14.0975     0.0000     1.6891    14.2141
  3132.2740   373.4488    10.2890    85.0000    76.4712    87.2548  2168.2364    14.0623     0.0000     1.7880    14.1968
  3132.3045   373.4488    10.3489    85.0000    75.8758    87.2549  2168.2203    14.0268     0.0000     1.8867    14.1741
  3132.3350   373.4488    10.4051    85.0000    74.9431    87.2549  2168.2049    13.9934     0.0000     1.9739    14.1477
  3132.3655   373.4488    10.4713    85.0000    73.7461    87.2549  2168.1916    13.9629     0.0000     2.0419    14.1174
  3132.3960   373.4488    10.5454    85.0000    72.3987    87.2548  2168.1814    13.9359     0.0000     2.0903    14.0824
  3132.4265   373.4488    10.6046    85.0000    71.0399    87.2547  2168.1743    13.9132     0.0000     2.1228    14.0451
  3132.4570   373.4488    10.6341    85.0000    69.8369    87.2547  2168.1703    13.8971     0.0000     2.1434    14.0089
  3132.4875   373.4487    10.6348    85.0000    68.8715    87.2547  2168.1694    13.8902     0.0000     2.1553    13.9763
  3132.5180   373.4487    10.6046    85.0000    68.1376    87.2547  2168.1719    13.8934     0.0000     2.1604    13.9484
  3132.5485   373.4487    10.5531    85.0000    67.6370    87.2547  2168.1779    13.9062     0.0000     2.1603    13.9264
  3132.5790   373.4487    10.5034    85.0000    67.3993    87.2547  2168.1878    13.9280     0.0000     2.1561    13.9126
  3132.6095   373.4487    10.4570    85.0000    67.4345    87.2546  2168.2021    13.9577     0.0000     2.1508    13.9080
  3132.6400   373.4487    10.3996    85.0000    67.6938    87.2546  2168.2209    13.9949     0.0000     2.1514    13.9121
  3132.6705   373.4487    10.3292    85.0000    68.1319    87.2546  2168.2443    14.0379     0.0000     2.1663    13.9253
  3132.7010   373.4487    10.2524    85.0000    68.7521    87.2548  2168.2715    14.0819     0.0000     2.2044    13.9478
  3132.7315   373.4487    10.1674    85.0000    69.5982    87.2550  2168.3017    14.1241     0.0000     2.2742    13.9777
  3132.7620   373.4487    10.0724    85.0000    70.6811    87.2551  2168.3335    14.1637     0.0000     2.3808    14.0143
  3132.7925   373.4488     9.9883    85.0000    71.9267    87.2554  2168.3660    14.1992     0.0000     2.5248    14.0571
  3132.8230   373.4488     9.9337    85.0000    73.2688    87.2555  2168.3984    14.2287     0.0000     2.7055    14.1027
  3132.8535   373.4542     9.8988    85.0000    74.6440    87.2557  2168.4303    14.2515     0.0000     2.9223    14.1463
  3132.8840   373.4744     9.8703    85.0000    75.9936    87.2559  2168.4611    14.2659     0.0000     3.1684    14.1860
  3132.9145   373.5043     9.8475    85.0000    77.2489    87.2562  2168.4900    14.2699     0.0000     3.4324    14.2211
  3132.9450   373.5291     9.8342    85.0000    78.2870    87.2564  2168.5161    14.2643     0.0000     3.7048    14.2513
  3132.9755   373.5436     9.8277    85.0000    79.0778    87.2567  2168.5389    14.2507     0.0000     3.9758    14.2748
  3133.0060   373.5499     9.8241    85.0000    79.6706    87.2569  2168.5583    14.2288     0.0000     4.2389    14.2887
  3133.0365   373.5500     9.8232    85.0000    80.0387    87.2571  2168.5744    14.1989     0.0000     4.4915    14.2920
  3133.0670   373.5457     9.8297    85.0000    80.1230    87.2572  2168.5879    14.1625     0.0000     4.7312    14.2854
  3133.0975   373.5383     9.8543    85.0000    79.8929    87.2574  2168.6000    14.1224     0.0000     4.9565    14.2703
  3133.1280   373.5290     9.8983    85.0000    79.3678    87.2575  2168.6120    14.0814     0.0000     5.1648    14.2470
  3133.1585   373.5187     9.9465    85.0000    78.5854    87.2576  2168.6248    14.0421     0.0000     5.3521    14.2165
  3133.1890   373.5081     9.9807    85.0000    77.5683    87.2577  2168.6388    14.0071     0.0000     5.5105    14.1789
  3133.2195   373.4978    10.0037    85.0000    76.3814    87.2577  2168.6545    13.9780     0.0000     5.6311    14.1360
  3133.2500   373.4882    10.0330    85.0000    75.0794    87.2578  2168.6723    13.9549     0.0000     5.7102    14.0917
  3133.2805   373.4795    10.0670    85.0000    73.7181    87.2580  2168.6925    13.9374     0.0000     5.7462    14.0496
  3133.3110   373.4718    10.0896    85.0000    72.4395    87.2582  2168.7146    13.9252     0.0000     5.7389    14.0122
  3133.3415   373.4652    10.1006    85.0000    71.3597    87.2584  2168.7381    13.9187     0.0000     5.6925    13.9805
  3133.3720   373.4597    10.1109    85.0000    70.4553    87.2585  2168.7634    13.9184     0.0000     5.6179    13.9549
  3133.4025   373.4552    10.1227    85.0000    69.6849    87.2586  2168.7905    13.9252     0.0000     5.5304    13.9361
  3133.4330   373.4517    10.1479    85.0000    69.0679    87.2588  2168.8192    13.9392     0.0000     5.4432    13.9237
  3133.4635   373.4490    10.1948    85.0000    68.5948    87.2590  2168.8493    13.9591     0.0000     5.3664    13.9170
  3133.4940   373.4470    10.2486    85.0000    68.2580    87.2592  2168.8814    13.9830     0.0000     5.3094    13.9168
  3133.5245   373.4456    10.3056    85.0000    68.1011    87.2594  2168.9151    14.0113     0.0000     5.2797    13.9230
  3133.5550   373.4448    10.3770    87.4500    68.1530    87.2596  2168.9494    14.0439     0.0000     5.2800    13.9348
  3133.5855   373.4444    10.4627    81.2500    68.3819    87.2598  2168.9837    14.0789     0.0000     5.3095    13.9521
  3133.6160   373.4442    10.5498    83.1000    68.7182    87.2600  2169.0176    14.1147     0.0000     5.3669    13.9745
  3133.6465   373.4443    10.6214    88.4500    69.0958    87.2603  2169.0503    14.1507     0.0000     5.4466    14.0014
  3133.6770   373.4446    10.6682    85.0000    69.4757    87.2606  2169.0810    14.1853     0.0000     5.5390    14.0328
  3133.7075   373.4450    10.6923    85.0000    69.8461    87.2611  2169.1088    14.2161     0.0000     5.6369    14.0674
  3133.7380   373.4454    10.6987    85.0000    70.2263    87.2614  2169.1336    14.2416     0.0000     5.7391    14.1034
  3133.7685   373.4459    10.6921    85.0000    70.6189    87.2617  2169.1555    14.2609     0.0000     5.8421    14.1395
  3133.7990   373.4464    10.6711    85.0000    71.0033    87.2619  2169.1756    14.2741     0.0000     5.9399    14.1734
  3133.8295   373.4468    10.6281    85.0000    71.3757    87.2622  2169.1949    14.2831     0.0000     6.0307    14.2036
  3133.8600   373.4472    10.5633    85.0000    71.7176    87.2625  2169.2146    14.2891     0.0000     6.1111    14.2298
  3133.8905   373.4476    10.4849    85.0000    71.9893    87.2628  2169.2358    14.2922     0.0000     6.1744    14.2513
  3133.9210   373.4479    10.3975    85.0000    72.0992    87.2632  2169.2589    14.2929     0.0000     6.2166    14.2673
  3133.9515   373.4482    10.3055    85.0000    71.9822    87.2635  2169.2836    14.2932     0.0000     6.2362    14.2785
  3133.9820   373.4484    10.2161    85.0000    71.7112    87.2637  2169.3093    14.2931     0.0000     6.2348    14.2864
  3134.0125   373.4486    10.1340    85.0000    71.3676    87.2637  2169.3354    14.2909     0.0000     6.2159    14.2909
  3134.0430   373.4487    10.0654    85.0000    70.9535    87.2638  2169.3618    14.2854     0.0000     6.1837    14.2921
  3134.0735   373.4488    10.0160    85.0000    70.4845    87.2639  2169.3882    14.2771     0.0000     6.1425    14.2909
  3134.1040   373.4489     9.9752    85.0000    70.0071    87.2640  2169.4143    14.2679     0.0000     6.0946    14.2880
  3134.1345   373.4489     9.9340    85.0000    69.5336    87.2642  2169.4403    14.2595     0.0000     6.0400    14.2834
  3134.1650   373.4489     9.8975    85.0000    69.0729    87.2643  2169.4670    14.2528     0.0000     5.9779    14.2759
  3134.1955   373.4490     9.8697    85.0000    68.6581    87.2645  2169.4948    14.2475     0.0000     5.9083    14.2653
  3134.2260   373.4490     9.8470    85.0000    68.3225    87.2646  2169.5239    14.2430     0.0000     5.8332    14.2543
  3134.2565   373.4489     9.8341    85.0000    68.1525    87.2648  2169.5538    14.2385     0.0000     5.7584    14.2452
  3134.2870   373.4489     9.8465    85.0000    68.2367    87.2650  2169.5839    14.2355     0.0000     5.6910    14.2380
  3134.3175   373.4489     9.8818    85.0000    68.5347    87.2654  2169.6136    14.2350     0.0000     5.6353    14.2312
  3134.3480   373.4489     9.9240    85.0000    68.9311    87.2658  2169.6423    14.2344     0.0000     5.5920    14.2244
  3134.3785   373.4489     9.9669    85.0000    69.3594    87.2662  2169.6699    14.2295     0.0000     5.5582    14.2185
  3134.4090   373.4489    10.0032    85.0000    69.7920    87.2666  2169.6965    14.2180     0.0000     5.5236    14.2153
  3134.4395   373.4488    10.0269    85.0000    70.2088    87.2671  2169.7227    14.2003     0.0000     5.4766    14.2155
  3134.4700   373.4488    10.0399    86.2000    70.6453    87.2674  2169.7488    14.1777     0.0000     5.4095    14.2164
  3134.5005   373.4488    10.0512    83.7000    71.1372    87.2678  2169.7750    14.1531     0.0000     5.3177    14.2133
  3134.5310   373.4488    10.0725    84.0000    71.6589    87.2681  2169.8011    14.1300     0.0000     5.2002    14.2038
  3134.5615   373.4488    10.0979    86.2500    72.1187    87.2683  2169.8268    14.1097     0.0000     5.0650    14.1888
  3134.5920   373.4488    10.1169    85.0000    72.3869    87.2685  2169.8518    14.0934     0.0000     4.9246    14.1699
  3134.6225   373.4488    10.1380    85.0000    72.3888    87.2687  2169.8754    14.0840     0.0000     4.7879    14.1484
  3134.6530   373.4488    10.1670    85.0000    72.1477    87.2688  2169.8973    14.0835     0.0000     4.6609    14.1265
  3134.6835   373.4488    10.2001    85.0000    71.7518    87.2689  2169.9176    14.0922     0.0000     4.5464    14.1065
  3134.7140   373.4433    10.2348    85.0000    71.2718    87.2690  2169.9364    14.1094     0.0000     4.4408    14.0907
  3134.7445   373.4231    10.2771    85.0000    70.7683    87.2690  2169.9539    14.1360     0.0000     4.3347    14.0811
  3134.7750   373.3877    10.3387    85.0000    70.2864    87.2690  2169.9701    14.1698     0.0000     4.2256    14.0788
  3134.8055   373.3482    10.4117    85.0000    69.7755    87.2690  2169.9850    14.2076     0.0000     4.1202    14.0844
  3134.8360   373.3185    10.4747    85.0000    69.1394    87.2690  2169.9983    14.2471     0.0000     4.0240    14.0992
  3134.8665   373.3027    10.5222    85.0000    68.3471    87.2690  2170.0096    14.2875     0.0000     3.9467    14.1244
  3134.8970   373.2976    10.5584    85.0000    67.4596    87.2690  2170.0188    14.3278     0.0000     3.8995    14.1579
  3134.9275   373.3005    10.5823    85.0000    66.5529    87.2690  2170.0257    14.3682     0.0000     3.8855    14.1958
  3134.9580   373.3092    10.5961    85.0000    65.6338    87.2690  2170.0310    14.4082     0.0000     3.8961    14.2360
  3134.9885   373.3216    10.5976    85.0000    64.6526    87.2690  2170.0360    14.4467     0.0000     3.9173    14.2773
  3135.0190   373.3362    10.5722    85.0000    63.5981    87.2689  2170.0420    14.4848     0.0000     3.9337    14.3188
  3135.0495   373.3518    10.5203    85.0000    62.4706    87.2689  2170.0498    14.5242     0.0000     3.9306    14.3604
  3135.0800   373.3674    10.4463    85.0000    61.2243    87.2689  2170.0590    14.5639     0.0000     3.8990    14.4023
  3135.1105   373.3823    10.3495    82.1500    59.8531    87.2689  2170.0690    14.6027     0.0000     3.8367    14.4436
  3135.1410   373.3960    10.2453    88.4500    58.4075    87.2689  2170.0794    14.6411     0.0000     3.7474    14.4845
  3135.1715   373.4138    10.1502    87.7500    56.9880    87.2689  2170.0903    14.6799     0.0000     3.6391    14.5260
  3135.2020   373.4446    10.0683    83.1000    55.6883    87.2689  2170.1021    14.7197     0.0000     3.5196    14.5671
  3135.2325   373.4836     9.9971    81.7000    54.5272    87.2689  2170.1157    14.7598     0.0000     3.3974    14.6068
  3135.2630   373.5159     9.9343    85.0000    53.5288    87.2690  2170.1326    14.7983     0.0000     3.2823    14.6456
  3135.2935   373.5364     9.8804    88.6000    52.7091    87.2693  2170.1544    14.8347     0.0000     3.1804    14.6839
  3135.3240   373.5474     9.8353    85.0000    52.0441    87.2696  2170.1805    14.8690     0.0000     3.0952    14.7214
  3135.3545   373.5511     9.8008    83.5500    51.5042    87.2700  2170.2095    14.9004     0.0000     3.0320    14.7579
  3135.3850   373.5493     9.7776    85.0000    51.0625    87.2704  2170.2396    14.9270     0.0000     2.9978    14.7938
  3135.4155   373.5435     9.7694    85.0000    50.7060    87.2708  2170.2686    14.9478     0.0000     2.9983    14.8291
  3135.4460   373.5352     9.7861    85.0000    50.4655    87.2711  2170.2949    14.9622     0.0000     3.0363    14.8617
  3135.4765   373.5253     9.8276    85.0000    50.4133    87.2714  2170.3173    14.9706     0.0000     3.1184    14.8903
  3135.5070   373.5148     9.8781    83.9000    50.5770    87.2717  2170.3357    14.9738     0.0000     3.2504    14.9141
  3135.5375   373.5042     9.9200    85.0000    50.9509    87.2719  2170.3501    14.9725     0.0000     3.4268    14.9321
  3135.5680   373.4941     9.9557    85.0000    51.5159    87.2721  2170.3610    14.9684     0.0000     3.6347    14.9446
  3135.5985   373.4848     9.9979    86.2500    52.2444    87.2722  2170.3693    14.9645     0.0000     3.8601    14.9519
  3135.6290   373.4764    10.0480    85.0000    53.1419    87.2722  2170.3758    14.9633     0.0000     4.0897    14.9538
  3135.6595   373.4692    10.1017    85.0000    54.2053    87.2722  2170.3814    14.9653     0.0000     4.3126    14.9517
  3135.6900   373.4630    10.1556    85.0000    55.4192    87.2722  2170.3869    14.9696     0.0000     4.5223    14.9487
